Time	ax	ay	vx	vy	Height	Mass	Density
0	0	0	0	0	0	344040	1.225
1	7.389741759766031e-15	110.88190923090842	7.389741759766031e-15	110.88190923090842	110.88190923090842	344040.0	1.225
2	1.2637730394911302	110.75936047039049	1.2637730394911375	221.6412697012989	332.5231789322073	342917.4703557312	1.208981387156621
3	2.5356659262887162	110.79142916796665	3.7994389657798537	332.43269886926555	664.9558778014729	341794.94071146246	1.1775901820488184
4	3.8155320960923733	110.60545168036886	7.614971061872227	443.0381505496344	1107.9940283511073	340672.41106719367	1.1320366847334526
5	5.1031511067538755	110.23903716672518	12.718122168626103	553.2771877163595	1661.2712160674669	339549.8814229249	1.0740679085015703
6	6.398257199016751	109.74349519689562	19.116379367642853	663.0206829132552	2324.291898980722	338427.3517786561	1.0058460513665144
7	7.700577642690758	109.17828561649974	26.81695701033361	772.1989685297549	3096.490867510477	337304.82213438733	0.929803640546267
8	9.009874049687241	108.60490253819792	35.82683106002085	880.8038710679529	3977.29473857843	336182.2924901186	0.8484906213540144
9	10.325979414188744	108.08109326335276	46.152810474209595	988.8849643313056	4966.179702909736	335059.7628458498	0.7644279654596148
10	11.648824634985795	107.65613092970139	57.80163510919539	1096.541095261007	6062.720798170743	333937.23320158105	0.6799797277303347
11	12.97845037379674	107.36757039226377	70.78008548299212	1203.9086656532709	7266.629463824014	332814.70355731226	0.5972516809250844
12	14.31500278368995	107.23961146272052	85.09508826668207	1311.1482771159913	8577.777740940006	331692.17391304346	0.5180205618429788
13	15.658714330448099	107.28294379737058	100.75380259713017	1418.4312209133618	9996.208961853368	330569.6442687747	0.4436942698967152
14	17.00987314322558	107.49578891504187	117.76367574035575	1525.9270098284037	11522.135971681771	329447.1146245059	0.37530049423183476
15	18.368785758422412	107.86578782215472	136.13246149877816	1633.7927976505584	13155.92876933233	328324.5849802372	0.31349935544943913
16	19.73573864533388	108.37238621563237	155.86820014411202	1742.1651838661908	14898.09395319852	327202.0553359684	0.2586146710678847
17	21.11096357497565	108.98941464516109	176.97916371908767	1851.1545985113519	16749.248551709872	326079.5256916996	0.21067821336598405
18	22.494610885367766	109.68762336584489	199.47377460445543	1960.8422218771968	18710.090773587068	324956.99604743085	0.16948161393274475
19	23.88673324595202	110.43699450936258	223.36050785040746	2071.2792163865593	20781.369989973628	323834.46640316205	0.13463118976485053
20	25.28728089141623	111.20870998071206	248.6477887418237	2182.4879263672715	22963.857916340898	322711.9367588933	0.10560177143315531
21	26.696107727943225	111.97670068112035	275.3438964697669	2294.464627048392	25258.322543389288	321589.4071146245	0.08178649807483689
22	28.112986418359693	112.71874279551469	303.4568828881266	2407.1833698439063	27665.505913233195	320466.8774703557	0.06254043371654677
23	29.537629670710928	113.4171018826653	332.9945125588375	2520.600471726572	30186.106384959767	319344.347826087	0.04721670340848613
24	30.969714557063238	114.05875618946722	363.96422711590077	2634.659227916039	32820.7656128758	318221.8181818182	0.03519460731016958
25	32.40890676817773	114.6352563526524	396.37313388407847	2749.2944842686916	35570.060097144495	317099.28853754944	0.025899816032786297
26	33.854882188200705	115.14229785888526	430.22801607227916	2864.436782127577	38434.49687927207	315976.75889328064	0.01881725902345217
27	35.30734392425061	115.57909362453167	465.5353599965298	2980.0158757521085	41414.512755024174	314854.22924901184	0.013497677205901946
28	36.76603379717927	115.94763590642924	502.30139379370905	3095.9635116585378	44510.476266682716	313731.6996047431	0.009559020858902204
29	38.23073814470272	116.25192981858295	540.5321319384118	3212.2154414771207	47722.69170815984	312609.1699604743	0.006683945461737513
30	39.70128848852373	116.49726668979218	580.2334204269355	3328.7127081669128	51051.404416326746	311486.6403162055	0.004614614273520965
31	41.17755809989267	116.68958700321346	621.4109785268281	3445.4022951701263	54496.80671149687	310364.11067193677	0.003145886271182139
32	42.6594557396691	116.83496272531593	664.0704342664972	3562.2372578954423	58059.04396939232	309241.58102766797	0.002117784065438653
33	44.14691786932173	116.93921021552833	708.2173521358189	3679.1764681109707	61738.22043750329	308119.05138339923	0.0014079292615949402
34	45.63990047884633	117.00762964258266	753.8572526146653	3796.1840977535535	65534.40453525684	306996.52173913043	0.0009244281104830175
35	47.138371421068044	117.0448560111342	800.9956240357334	3913.2289537646875	69447.63348902154	305873.9920948617	0.0005995068440582134
36	48.64230384353366	117.05480070053345	849.6379278792671	4030.283754465221	73477.91724348677	304751.4624505929	0.0003840449162610675
37	50.15167102217549	117.04066030439533	899.7895989014426	4147.324414769617	77625.24165825639	303628.9328063241	0.0002430397759813965
38	51.66644266110987	117.00497057787742	951.4560415625524	4264.329385347494	81889.57104360388	302506.40316205536	0.00015195778668513677
39	53.186582548379675	116.94968634815635	1004.642624110932	4381.279071695651	86270.85011529953	301383.87351778656	9.387797219795529e-05
40	54.71204735090686	116.87627229558476	1059.354671461839	4498.155343991235	90769.00545929077	300261.34387351776	5.7312108341578225e-05
41	56.24278628533724	116.78579374904436	1115.5974577471761	4614.941137740279	95383.94659703106	299138.814229249	3.457957523475959e-05
42	57.77874140082858	116.67900049900872	1173.3761991480046	4731.620138239288	100115.56673527035	298016.2845849802	2.0622147876209602e-05
43	59.31984823945182	116.55639980507767	1232.6960473874565	4848.176538044366	104963.74327331471	296893.7549407115	1.2157413362371908e-05
44	60.866036685342834	116.41831715315223	1293.5620840727993	4964.594855197518	109928.33812851223	295771.2252964427	7.085903093204415e-06
45	62.417231863680186	116.26494493432544	1355.9793159364795	5080.859800131843	115009.19792864408	294648.6956521739	4.083675668213925e-06
46	63.973354997197475	116.09638018840538	1419.952670933677	5196.956180320249	120206.15410896433	293526.16600790515	2.3273735086606548e-06
47	65.5343241668776	115.91265302902099	1485.4869951005546	5312.86883334927	125519.0229423136	292403.63636363635	1.3118918556091995e-06
48	67.10005495304495	115.71374749380318	1552.5870500535996	5428.582580843074	130947.60552315667	291281.1067193676	7.314873853324191e-07
49	68.67046095347985	115.4996164717048	1621.2575110070793	5544.082197314779	136491.68772047144	290158.5770750988	4.035094159781192e-07
50	70.24545418773694	115.2701921511936	1691.5029651948162	5659.352389465972	142151.0401099374	289036.04743083	2.2024248130515613e-07
51	71.82494540332176	115.0253931794892	1763.327910598138	5774.377782645462	147925.41789258286	287913.5177865613	1.18963300318606e-07
52	73.40884430157598	114.76512947009108	1836.736754899714	5889.1429121155525	153814.5608046984	286790.9881422925	6.359963731385418e-08
53	74.99705970059932	114.48930536918003	1911.7338146003133	6003.632217484733	159818.19302218314	285668.4584980237	3.365832552729635e-08
54	76.5894996505316	114.19782170229747	1988.3233142508448	6117.830039187031	165936.0230613702	284545.92885375494	1.763576746869159e-08
55	78.18607151389348	113.89057707298042	2066.5093857647385	6231.720616260011	172167.7436776302	283423.39920948615	9.150170392490137e-09
56	79.7866820210047	113.56746867146124	2146.296067785743	6345.288084931472	178513.03176256167	282300.8695652174	4.701831972661739e-09
57	81.39123730806703	113.22839276842997	2227.68730509381	6458.516477699903	184971.5482402616	281178.3399209486	2.3932023421916693e-09
58	82.99964294347055	112.87324500989783	2310.6869480372807	6571.3897227098005	191542.9379629714	280055.8102766798	1.2068089204033658e-09
59	84.61180394626818	112.50192058852053	2395.2987519835488	6683.891643298321	198226.82960626972	278933.2806324111	6.030007245953792e-10
60	86.22762479954984	112.11431433936903	2481.5263767830984	6796.00595763769	205022.8355639074	277810.7509881423	2.986014168463181e-10
61	87.84700946055666	111.71032079014228	2569.373386243655	6907.716278427832	211930.55184233523	276688.22134387353	1.4656695580568294e-10
62	89.46986136875027	111.28983418423694	2658.8432476124053	7019.006112612068	218949.5579549473	275565.69169960474	7.132254950502575e-11
63	91.09608345262171	110.85274848779058	2749.939331065027	7129.858861099859	226079.41681604716	274443.16205533594	3.441450778149042e-11
64	92.72557813573547	110.39895738729551	2842.6649092007624	7240.2578184871545	233319.6746345343	273320.6324110672	1.646866407504237e-11
65	94.358247342317	109.92835428163795	2937.0231565430795	7350.186172768793	240669.8608073031	272198.1027667984	7.817291527720438e-12
66	95.9939925025712	109.44083227077539	3033.0171490456505	7459.627005039568	248129.48781234268	271075.57312252966	3.681418471738445e-12
67	97.63271455784306	108.93628414230285	3130.6498636034935	7568.5632891818705	255698.05110152456	269953.04347826086	1.720345078346895e-12
68	99.2743139656871	108.41460235660108	3229.9241775691808	7676.977891538471	263375.028993063	268830.51383399207	7.978821060671327e-13
69	100.91869070488171	107.875679030941	3330.8428682740623	7784.853570569412	271159.88256363245	267707.9841897233	3.6733862246192467e-13
70	102.56574428040999	107.31940592274114	3433.4086125544723	7892.172976492153	279052.0555401246	266585.45454545453	1.6791200095927254e-13
71	104.21537372841726	106.74567441207486	3537.6239862828897	7998.918650904227	287050.9741910288	265462.9249011858	7.621971274125979e-14
72	105.8674776211509	106.15437548346964	3643.4914639040408	8105.073026387697	295156.0472174165	264340.395256917	3.4364260296534e-14
73	107.52195407188418	105.54539970701182	3751.0134179759248	8210.618426094708	303366.6656435112	263217.8656126482	1.5391644103277807e-14
74	109.17870073982472	104.91863721875318	3860.1921187157495	8315.53706331346	311682.2027068247	262095.33596837946	6.849928010196024e-15
75	110.83761483500571	104.27397770040784	3971.0297335507553	8419.811041013869	320102.01374783856	260972.80632411066	3.0296681874299453e-15
76	112.49859312315986	103.61131035832231	4083.528326673915	8523.422351372192	328625.43609921075	259850.27667984192	1.3319798503943928e-15
77	114.16153193057275	102.93052390169936	4197.689858604488	8626.352875273891	337251.78897448466	258727.74703557312	5.822098874485083e-16
78	115.82632714891484	102.23150652005437	4313.516185753403	8728.584381793946	345980.37335627864	257605.21739130435	2.5306199958545453e-16
79	117.49287424004896	101.51414585988115	4431.009059993452	8830.098527653827	354810.4718839325	256482.68774703558	1.094022098440106e-16
80	119.16106824081193	100.77832900050412	4550.170128234264	8930.876856654331	363741.34874058684	255360.15810276679	4.705043433408849e-17
81	120.83080376776714	100.02394242909196	4671.000932002031	9030.900799083423	372772.24953967024	254237.62845849802	2.0133826625376184e-17
82	122.50197502192621	99.25087201480713	4793.502907023957	9130.15167109823	381902.4012107685	253115.09881422925	8.57434708842341e-18
83	124.17447579343698	98.45900298206581	4917.677382817394	9228.610674080297	391131.0118848488	251992.56916996048	3.6347525124558835e-18
84	125.84819946623554	97.64821988288028	5043.525582283629	9326.258893963177	400457.270778812	250870.0395256917	1.534033157135687e-18
85	127.5230390226589	96.81840656825626	5171.048621306288	9423.077300531433	409880.34807934344	249747.5098814229	6.447151151970025e-19
86	129.19888704801684	95.9694461586161	5300.247508354305	9519.04674669005	419399.3948260335	248624.98023715414	2.6987411826211297e-19
87	130.87563573511866	95.101221013218	5431.1231440894235	9614.147967703268	429013.5427937368	247502.45059288538	1.125387071305864e-19
88	132.5531768887533	94.21361269854043	5563.676320978177	9708.361580401808	438721.9043741386	246379.9209486166	4.67602518124281e-20
89	134.23140193011866	93.30650195559991	5697.907722908295	9801.668082357408	448523.572456496	245257.39130434784	1.9363007043006033e-20
90	135.91020190119815	92.37976866616873	5833.817924809493	9894.047851023577	458417.62030751957	244134.86166007904	7.992386077118431e-21
91	137.5894674690801	91.43329181785923	5971.407392278573	9985.481142841436	468403.101450361	243012.33201581027	3.2890785408851403e-21
92	139.26908893021812	90.46694946803837	6110.676481208791	10075.948092309474	478479.0495426705	241889.8023715415	1.3497470598098305e-21
93	140.94895621462788	89.48061870653744	6251.6254374234195	10165.428711016011	488644.4782536865	240767.2727272727	5.524549175826313e-22
94	142.6289588900175	88.47417561711762	6394.254396313437	10253.902886633128	498898.38114031963	239644.74308300397	2.25576189902841e-22
95	144.30898616584764	87.44749523765331	6538.563382479284	10341.350381870781	509239.7315221904	238522.21343873517	9.19024202742202e-23
96	145.9889268973181	86.40045151899255	6684.552309376602	10427.750833389773	519667.48235558014	237399.6837944664	3.7366538938502394e-23
97	147.66866958927605	85.33291728245206	6832.220978965878	10513.083750672226	530180.5661062524	236277.15415019763	1.516511080701932e-23
98	149.34810240004356	84.24476417590422	6981.569081365922	10597.32851484813	540777.8946211005	235154.62450592883	6.144679312474444e-24
99	151.02711314515872	83.13586262841034	7132.596194511081	10680.46437747654	551458.358998577	234032.0948616601	2.486150688175978e-24
100	152.70558930102737	82.00608180335375	7285.301783812109	10762.470459279895	562220.829457857	232909.5652173913	1.0046469042680631e-24
101	154.38341800848016	80.85528955002476	7439.685201820589	10843.32574882992	573064.1552066868	231787.03557312253	4.0554579017200674e-25
102	156.06048607623148	79.68335235360624	7595.7456878968205	10923.009101183527	583987.1643078703	230664.50592885376	1.6356444880262423e-25
103	157.7366799842347	78.49013528350868	7753.482367881055	11001.499236467036	594988.6635443374	229541.97628458496	6.592377296257924e-26
104	159.41188588692924	77.27550194000062	7912.894253767985	11078.774738407037	606067.4382827444	228419.44664031622	2.655707718151448e-26
105	161.0859896163747	76.03931439907785	8073.98024338436	11154.814052806116	617222.2523355505	227296.91699604742	1.069507686842636e-26
